"Freq [GHz]","dB(S(1,1)) []"
0.002,-0.000358300935691028
0.002998,-0.000590191399193411
0.003996,-0.000906885898372794
0.004994,-0.00130180082941182
0.005992,-0.00176832082833984
0.00699,-0.00230140795694547
0.007988,-0.00289984746857454
0.008986,-0.00356934304338187
0.009984,-0.00432676253953241
0.010982,-0.00504227521828341
0.01198,-0.00587915543630521
0.012978,-0.00685975642193306
0.013976,-0.00800824041275141
0.014974,-0.00935408317353788
0.015972,-0.0109334195411565
0.01697,-0.0127908078870171
0.017968,-0.0149815611379079
0.018966,-0.0175748503189551
0.019964,-0.0206578696332697
0.020962,-0.0243414704036609
0.02196,-0.02876783895199
0.022958,-0.0341210281379554
0.023956,-0.0406414707603554
0.024954,-0.0486460080584404
0.025952,-0.058555406301758
0.02695,-0.0709315936876656
0.027948,-0.0865262709380225
0.028946,-0.106339350556108
0.029944,-0.131675399617209
0.030942,-0.1641586603454
0.03194,-0.205602179568005
0.032938,-0.257498291857109
0.033936,-0.319730888879456
0.034934,-0.388195447627309
0.035932,-0.452219688197178
0.03693,-0.495468809052295
0.037928,-0.50418906420383
0.038926,-0.477512152889127
0.039924,-0.427524431601651
0.040922,-0.369452017089938
0.04192,-0.313871994602898
0.042918,-0.265564861959443
0.043916,-0.225557359801712
0.044914,-0.19315709524716
0.045912,-0.167135738273498
0.04691,-0.146256656197309
0.047908,-0.12945750293314
0.048906,-0.115883341446415
0.049904,-0.104865621087164
0.050902,-0.0958873828506317
0.0519,-0.0885497045422655
0.052898,-0.0825438172480568
0.053896,-0.0776293181769562
0.054894,-0.0736176166875132
0.055892,-0.0703595062556337
0.05689,-0.0677358663902907
0.057888,-0.0656506971013624
0.058886,-0.0640258794999953
0.059884,-0.0627972125377236
0.060882,-0.0619113957179187
0.06188,-0.0613237165250609
0.062878,-0.0609962662998793
0.063876,-0.0608965555008169
0.064874,-0.0609964335830949
0.065872,-0.0612712437221412
0.06687,-0.061699160952038
0.067868,-0.0622606758902883
0.068866,-0.0629381964496398
0.069864,-0.063715747790335
0.070862,-0.0645787569694383
0.07186,-0.0655139138444343
0.072858,-0.0665091042122279
0.073856,-0.0675534152622305
0.074854,-0.0686372175073093
0.075852,-0.0697523317339396
0.07685,-0.0708922945130342
0.077848,-0.0720527418191135
0.078846,-0.0732319377967758
0.079844,-0.074431485311038
0.080842,-0.0756572674549586
0.08184,-0.076920685801079
0.082838,-0.0782402834489489
0.083836,-0.0796438710482928
0.084834,-0.0811713150918988
0.085832,-0.0828782043340911
0.08683,-0.0848406886165575
0.087828,-0.0871618939747034
0.088826,-0.0899804722437484
0.089824,-0.093482062473174
0.090822,-0.0979147549006442
0.09182,-0.103610100144401
0.092818,-0.111011862685309
0.093816,-0.120715677767333
0.094814,-0.133524183375798
0.095812,-0.150524286309327
0.09681,-0.173196311630714
0.097808,-0.203569349700264
0.098806,-0.24444379870831
0.099804,-0.299711690831367
0.100802,-0.348258864350534
0.1018,-0.402104730531832
0.102798,-0.46960713210165
0.103796,-0.555091054885395
0.104794,-0.664341067138881
0.105792,-0.804816078885565
0.10679,-0.985283384994547
0.107788,-1.21365024837032
0.108786,-1.49042034345711
0.109784,-1.79454411091788
0.110782,-2.06515704542716
0.11178,-2.20612914139672
0.112778,-2.14819935989934
0.113776,-1.91816534739553
0.114774,-1.61133669541426
0.115772,-1.31084548652747
0.11677,-1.05542583366194
0.117768,-0.852076572839354
0.118766,-0.694377001219106
0.119764,-0.572839918138583
0.120762,-0.479010269114858
0.12176,-0.406555290385101
0.122758,-0.350763545397608
0.123756,-0.30752905460052
0.124754,-0.273378471857034
0.125752,-0.245890606806511
0.12675,-0.22350115658782
0.127748,-0.205140122611189
0.128746,-0.190020391748177
0.129744,-0.177538496425633
0.130742,-0.167222717851076
0.13174,-0.158700514467121
0.132738,-0.151675555172332
0.133736,-0.145910692427452
0.134734,-0.141215098927546
0.135732,-0.137434472916203
0.13673,-0.134443544978904
0.137728,-0.132140323045183
0.138726,-0.130441656554237
0.139724,-0.129279807171003
0.140722,-0.128599792731369
0.14172,-0.128357330228127
0.142718,-0.128517247786282
0.143716,-0.129052268628176
0.144714,-0.129942094942718
0.145712,-0.131172738553419
0.14671,-0.132736059972067
0.147708,-0.134629489061432
0.148706,-0.136855910047709
0.149704,-0.139423701752117
0.150702,-0.142346931245017
0.1517,-0.145645706179516
0.152698,-0.149346698316704
0.153696,-0.153483858706339
0.154694,-0.158099354188049
0.155692,-0.163244765995627
0.15669,-0.168982605125584
0.157688,-0.175388216887272
0.158686,-0.182552170196192
0.159684,-0.190583257790043
0.160682,-0.19961227455837
0.16168,-0.209796796716886
0.162678,-0.221327260543755
0.163676,-0.234434744373743
0.164674,-0.249401003961059
0.165672,-0.266571517436173
0.16667,-0.286372588867272
0.167668,-0.309333978925277
0.168666,-0.336119136877128
0.169664,-0.367565988437355
0.170662,-0.404742518658909
0.17166,-0.449023264080136
0.172658,-0.502195546466933
0.173656,-0.566608143380384
0.174654,-0.645380330826655
0.175652,-0.742695584908449
0.17665,-0.864209602237829
0.177648,-1.01759893445495
0.178646,-1.21324031430762
0.179644,-1.46487269583541
0.180642,-1.78966991335062
0.18164,-2.20600048695669
0.182638,-2.72447915153693
0.183636,-3.32374293746625
0.184634,-3.90529558849366
0.185632,-4.26559730528526
0.18663,-4.2041056982254
0.187628,-3.7389011464748
0.188626,-3.09037739512279
0.189624,-2.45890355270853
0.190622,-1.93212913339232
0.19162,-1.52188890085307
0.192618,-1.2110708401441
0.193616,-0.977303307257674
0.194614,-0.801083148907429
0.195612,-0.66737168709037
0.19661,-0.565096105329071
0.197608,-0.486227175423766
0.198606,-0.424947687883483
0.199604,-0.377017077460074
0.200602,-0.339314907842929
0.2016,-0.309520506353013
0.202598,-0.285889518710392
0.203596,-0.267097616214143
0.204594,-0.252130320565829
0.205592,-0.240204520781137
0.20659,-0.230711900773795
0.207588,-0.223177656466456
0.208586,-0.21723000336638
0.209584,-0.212577395312541
0.210582,-0.208991326773925
0.21158,-0.206293232420546
0.212578,-0.204344433294814
0.213576,-0.203038377683678
0.214574,-0.202294632065209
0.215572,-0.202054223160995
0.21657,-0.202276035948991
0.217568,-0.202934047654377
0.218566,-0.204015233083243
0.219564,-0.205518018200079
0.220562,-0.20745119070639
0.22156,-0.209833201456235
0.222558,-0.212691810933943
0.223556,-0.216064052285857
0.224554,-0.219996497774425
0.225552,-0.224545830056995
0.22655,-0.229779734350865
0.227548,-0.235778143318551
0.228546,-0.242634884496357
0.229544,-0.250459801626511
0.230542,-0.259381448034524
0.23154,-0.269550484474625
0.232538,-0.281143958724285
0.233536,-0.294370703936696
0.234534,-0.309478173436729
0.235532,-0.326761140004301
0.23653,-0.346572840425805
0.237528,-0.369339359895164
0.238526,-0.39557835353391
0.239524,-0.425923635808221
0.240522,-0.461157796921358
0.24152,-0.502255927183409
0.242518,-0.550444900547892
0.243516,-0.607284732078632
0.244514,-0.6747816746453
0.245512,-0.755547597548222
0.24651,-0.853027846674115
0.247508,-0.971831971224826
0.248506,-1.11822134300181
0.249504,-1.30083969833798
0.250502,-1.53182516733782
0.2515,-1.82852865945409
0.252498,-2.21620353854126
0.253496,-2.73224943488227
0.254494,-3.43288863874145
0.255492,-4.40333081792444
0.25649,-5.77107308976464
0.257488,-7.70846343954034
0.258486,-10.3043144817966
0.259484,-12.5939140973025
0.260482,-11.6987472960364
0.26148,-8.89024185734909
0.262478,-6.50144660503296
0.263476,-4.79444740863824
0.264474,-3.59929972218965
0.265472,-2.75525022903651
0.26647,-2.14963242415837
0.267468,-1.70735818858356
0.268466,-1.37869548694075
0.269464,-1.13046305122021
0.270462,-0.940231276622823
0.27146,-0.792599064508688
0.272458,-0.676813605178403
0.273456,-0.585240283915434
0.274454,-0.512368555263738
0.275452,-0.454157364292735
0.27645,-0.407597782053962
0.277448,-0.370416332161315
0.278446,-0.340870708395505
0.279444,-0.317607042566495
0.280442,-0.29955877484183
0.28144,-0.285874050273
0.282438,-0.275862954069601
0.283436,-0.268958738239274
0.284434,-0.264689054803453
0.285432,-0.26265444886446
0.28643,-0.262512198895617
0.287428,-0.263964161261561
0.288426,-0.266747670518022
0.289424,-0.270628824489478
0.290422,-0.275397681644192
0.29142,-0.280865043366264
0.292418,-0.286860602673671
0.293416,-0.293232325745797
0.294414,-0.299847001823132
0.295412,-0.306591956862554
0.29641,-0.313377981505335
0.297408,-0.320143578146994
0.298406,-0.32686068815396
0.299404,-0.333542120857696
0.300402,-0.340250972427471
0.3014,-0.347112395525853
0.302398,-0.354328158441965
0.303396,-0.362194510853563
0.304394,-0.371123943270411
0.305392,-0.381671471524365
0.30639,-0.394566067243187
0.307388,-0.410747742900994
0.308386,-0.431410513062061
0.309384,-0.458050885395038
0.310382,-0.492520539716674
0.31138,-0.537080247045027
0.312378,-0.594449664796688
0.313376,-0.667844267030092
0.314374,-0.760986349887056
0.315372,-0.878072189370983
0.31637,-1.02367306440256
0.317368,-1.20254590936159
0.318366,-1.36401240014283
0.319364,-1.53312277564128
0.320362,-1.73308228207688
0.32136,-1.97244530150643
0.322358,-2.26286811906146
0.323356,-2.62052366319488
0.324354,-3.06831822619134
0.325352,-3.63948815394432
0.32635,-4.38371744713119
0.327348,-5.37827111836102
0.328346,-6.75040635136213
0.329344,-8.72990819731604
0.330342,-11.8043039085527
0.33134,-17.3810463231778
0.332338,-27.6368510626669
0.333336,-16.3696461803357
0.334334,-10.9078482872566
0.335332,-7.77884036505773
0.33633,-5.7392184228412
0.337328,-4.33415594357296
0.338326,-3.33666575078059
0.339324,-2.613822637634
0.340322,-2.08124388349227
0.34132,-1.68307820429488
0.342318,-1.38144195197739
0.343316,-1.15018468689306
0.344314,-0.970984382386111
0.345312,-0.830824353051731
0.34631,-0.720332524473567
0.347308,-0.63267326462179
0.348306,-0.562798896900579
0.349304,-0.506938150263027
0.350302,-0.462242401593916
0.3513,-0.426538152268662
0.352298,-0.398151824571164
0.353296,-0.375784347606647
0.354294,-0.358420411235186
0.355292,-0.345262132492719
0.35629,-0.335680105632159
0.357288,-0.329176968069785
0.358286,-0.325360076939312
0.359284,-0.323920890893729
0.360282,-0.324619342715318
0.36128,-0.327271970774022
0.362278,-0.331742917951614
0.363276,-0.337937149772388
0.364274,-0.345795419141497
0.365272,-0.355290633740558
0.36627,-0.366425377867779
0.367268,-0.379230413184344
0.368266,-0.393764039417914
0.369264,-0.41011224161592
0.370262,-0.42838958876184
0.37126,-0.448740882313771
0.372258,-0.471343584766248
0.373256,-0.496411089581194
0.374254,-0.524196926482908
0.375252,-0.555000031771382
0.37625,-0.589171253564642
0.377248,-0.627121308340495
0.378246,-0.669330459426569
0.379244,-0.716360251721761
0.380242,-0.768867711168298
0.38124,-0.827622502853436
0.382238,-0.893527637097212
0.383236,-0.967644414497752
0.384234,-1.05122239916366
0.385232,-1.14573528484837
0.38623,-1.25292353448362
0.387228,-1.37484456221108
0.388226,-1.51393086805339
0.389224,-1.67305571716802
0.390222,-1.85560430901569
0.39122,-2.06554526546887
0.392218,-2.30749156823163
0.393216,-2.5867298646119
0.394214,-2.90917899472047
0.395212,-3.28120694616856
0.39621,-3.70918071659684
0.397208,-4.19853138198835
0.398206,-4.7519708082518
0.399204,-5.36630107518635
0.400202,-6.02712542325173
0.4012,-6.701175551518
0.402198,-7.32818233861171
0.403196,-7.81984705255281
0.404194,-8.07939166759153
0.405192,-8.04537596597297
0.40619,-7.72960823834555
0.407188,-7.20886319522599
0.408186,-6.58004884041365
0.409184,-5.92276187905911
0.410182,-5.28771287589691
0.41118,-4.70125559219131
0.412178,-4.17377476430977
0.413176,-3.70656673401004
0.414174,-3.29631592994792
0.415172,-2.93770591978126
0.41617,-2.62484081435988
0.417168,-2.35196970773216
0.418166,-2.11382128343326
0.419164,-1.90572800423758
0.420162,-1.72364140608913
0.42116,-1.56409477044909
0.422158,-1.4241437327271
0.423156,-1.30130093766842
0.424154,-1.19347281746348
0.425152,-1.09890216004615
0.42615,-1.01611777049037
0.427148,-0.943891309172882
0.428146,-0.881200806481122
0.429144,-0.827200116093206
0.430142,-0.781193513809944
0.43114,-0.742614684983852
0.432138,-0.711009420193688
0.433136,-0.686021428752339
0.434134,-0.667380768917166
0.435132,-0.654894475676184
0.43613,-0.648439039113752
0.437128,-0.647954448125165
0.438126,-0.653439566187022
0.439124,-0.664948648952945
0.440122,-0.682588848675326
0.44112,-0.706518578803046
0.442118,-0.736946634330951
0.443116,-0.774131980085944
0.444114,-0.818384130333637
0.445112,-0.870064048726091
0.44611,-0.929585497098145
0.447108,-0.997416753814117
0.448106,-1.07408260539357
0.449104,-1.16016648613917
0.450102,-1.25631259521077
0.4511,-1.36322775287146
0.452098,-1.48168265858115
0.453096,-1.61251207047255
0.454094,-1.75661322027774
0.455092,-1.91494148402494
0.45609,-2.08850191011303
0.457088,-2.27833461142753
0.458086,-2.48549118672198
0.459084,-2.71099815540432
0.460082,-2.95580175290092
0.46108,-3.22068621268867
0.462078,-3.50615475499298
0.463076,-3.81225894044749
0.464074,-4.13835822408935
0.465072,-4.48278870467122
0.46607,-4.84242119875912
0.467068,-5.21210004636885
0.468066,-5.58398643160309
0.469064,-5.94689914905309
0.470062,-6.2858649858856
0.47106,-6.58224775763014
0.472058,-6.81493722274146
0.473056,-6.96296298477107
0.474054,-7.00935572271427
0.475052,-6.9451877716685
0.47605,-6.77210108073095
0.477048,-6.5020442992284
0.478046,-6.15434744679332
0.479044,-5.75156472124606
0.480042,-5.3157336007209
0.48104,-4.86597246817089
0.482038,-4.41747667514346
0.483036,-3.98150460724342
0.484034,-3.56588073043733
0.485032,-3.17567126232034
0.48603,-2.81384166456145
0.487028,-2.48181584647028
0.488026,-2.17991900651252
0.489024,-1.90771412675064
0.490022,-1.66425135466916
0.49102,-1.44824992726909
0.492018,-1.25822941921209
0.493016,-1.09260352693443
0.494014,-0.949746369970824
0.495012,-0.828038696188711
0.49601,-0.725899410342198
0.497008,-0.641806395818477
0.498006,-0.574309544595797
0.499004,-0.522038144661177
0.500002,-0.483704216134931
0.501,-0.458102977818491
0.501998,-0.444111322762894
0.502996,-0.440684955263899
0.503994,-0.446854671767332
0.504992,-0.4617221399282
0.50599,-0.484455433070832
0.506988,-0.514284503952871
0.507986,-0.550496726424712
0.508984,-0.592432592075842
0.509982,-0.63948161805496
0.51098,-0.691078499469532
0.511978,-0.74669952320003
0.512976,-0.805859248120318
0.513974,-0.868107448445939
0.514972,-0.93302631134328
0.51597,-1.00022787633426
0.516968,-1.06935170189341
0.517966,-1.14006274355126
0.518964,-1.2120494274819
0.519962,-1.28502190373326
0.52096,-1.35871046378263
0.521958,-1.43286410784141
0.522956,-1.5072492481997
0.523954,-1.58164853582772
0.524952,-1.65585979839236
0.52595,-1.72969507877127
0.526948,-1.80297976403627
0.527946,-1.87555179571857
0.528944,-1.94726095295619
0.529942,-2.01796820085577
0.53094,-2.08754509707792
0.531938,-2.15587325027985
0.532936,-2.22284382462401
0.533934,-2.28835708509144
0.534932,-2.35232197882753
0.53593,-2.41465574819919
0.536928,-2.47528357166076
0.537926,-2.5341382289139
0.538924,-2.59115978720791
0.539922,-2.64629530596302
0.54092,-2.69949855721323
0.541918,-2.75072975965848
0.542916,-2.79995532438958
0.543914,-2.84714761060459
0.544912,-2.8922846898732
0.54591,-2.93535011772592
0.546908,-2.97633271154891
0.547906,-3.01522633395246
0.548904,-3.05202968095178
0.549902,-3.08674607445416
0.5509,-3.09306955024774
0.551898,-3.08801389438323
0.552896,-3.07138287706883
0.553894,-3.04003777311869
0.554892,-2.99072583553165
0.55589,-2.92044532458617
0.556888,-2.82696420872883
0.557886,-2.70943573610219
0.558884,-2.56897657200086
0.559882,-2.40901244412358
0.56088,-2.23520375730366
0.561878,-2.05487149920081
0.562876,-1.87602337964555
0.563874,-1.70624112105554
0.564872,-1.55173841475182
0.56587,-1.41681064837089
0.566868,-1.30373287758012
0.567866,-1.21301500670947
0.568864,-1.14385230516817
0.569862,-1.09461693660197
0.57086,-1.06328744508151
0.571858,-1.04777063856508
0.572856,-1.04611253405299
0.573854,-1.05661724517571
0.574852,-1.07789942692801
0.57585,-1.1088938634427
0.576848,-1.14884029781615
0.577846,-1.19725573643154
0.578844,-1.25390154125204
0.579842,-1.31874895673562
0.58084,-1.39194414557858
0.581838,-1.47377203663246
0.582836,-1.56461704820797
0.583834,-1.66491785464822
0.584832,-1.77511273603022
0.58583,-1.89557173550797
0.586828,-2.0265120317165
0.587826,-2.16789395789525
0.588824,-2.31929746333693
0.589822,-2.47978310734549
0.59082,-2.64774839564879
0.591818,-2.82079941988883
0.592816,-2.99566822846259
0.593814,-3.16821516915665
0.594812,-3.3335573968426
0.59581,-3.48635328955506
0.596808,-3.6212428828694
0.597806,-3.73339871246229
0.598804,-3.81909288548999
0.599802,-3.87615731829264
0.6008,-3.90422552355753
0.601798,-3.90469936889237
0.602796,-3.88046190974991
0.603794,-3.83542334350772
0.604792,-3.77401505185585
0.60579,-3.7007329265134
0.606788,-3.61979184071832
0.607786,-3.53491003318627
0.608784,-3.44921036225733
0.609782,-3.36520942480274
0.61078,-3.28486255430423
0.611778,-3.20963723778206
0.612776,-3.14059469868968
0.613774,-3.07846627456291
0.614772,-3.02371642241676
0.61577,-2.97658741461513
0.616768,-2.93712225463526
0.617766,-2.90516243720835
0.618764,-2.88031636375217
0.619762,-2.86189312093626
0.62076,-2.84879599110447
0.621758,-2.83937246982462
0.622756,-2.83122627847571
0.623754,-2.82101738808829
0.624752,-2.80431454017716
0.62575,-2.77562180887763
0.626748,-2.7287572113853
0.627746,-2.65775939428875
0.628744,-2.55834567136458
0.629742,-2.42959368790492
0.63074,-2.27512022164078
0.631738,-2.10296861090955
0.632736,-1.92397303838767
0.633734,-1.74924880649457
0.634732,-1.58793035296861
0.63573,-1.44597047169786
0.636728,-1.32609999824084
0.637726,-1.22852923056973
0.638724,-1.15187784672501
0.639722,-1.09399245838892
0.64072,-1.05252211688771
0.641718,-1.02525810159613
0.642716,-1.01029808612725
0.643714,-1.00609907682307
0.644712,-1.01146857449464
0.64571,-1.025525898137
0.646708,-1.04765174775495
0.647706,-1.07743481878118
0.648704,-1.11461869986933
0.649702,-1.15904920704448
0.6507,-1.21062081967924
0.651698,-1.26922043559712
0.652696,-1.33466699873332
0.653694,-1.40664662026117
0.654692,-1.48464465877001
0.65569,-1.56787886872485
0.656688,-1.65524101037628
0.657686,-1.74525771962491
0.658684,-1.83608394293888
0.659682,-1.92554235728288
0.66068,-2.01121831829022
0.661678,-2.09061109488002
0.662676,-2.161329244703
0.663674,-2.22130411923246
0.664672,-2.26898568598094
0.66567,-2.30348399749025
0.666668,-2.32462969423112
0.667666,-2.33294525032545
0.668664,-2.32953883411324
0.669662,-2.31594764016672
0.67066,-2.29396317117221
0.671658,-2.26546734306556
0.672656,-2.2322988770907
0.673654,-2.1961585904511
0.674652,-2.15855321075096
0.67565,-2.12077169227064
0.676648,-2.08388562875923
0.677646,-2.04876534271834
0.678644,-2.01610452579826
0.679642,-1.98644805614923
0.68064,-1.96021928994641
0.681638,-1.9377444551392
0.682636,-1.91927268895109
0.683634,-1.90499077769529
0.684632,-1.89503183733933
0.68563,-1.88947708254581
0.686628,-1.888349537457
0.687626,-1.89159812397502
0.688624,-1.89907015300681
0.689622,-1.91047008391298
0.69062,-1.92530295615663
0.691618,-1.94280289901853
0.692616,-1.96185172191885
0.693614,-1.98090107900391
0.694612,-1.99792472537876
0.69561,-2.01044300174092
0.696608,-2.01567248968981
0.697606,-2.01084511272546
0.698604,-1.99369558679827
0.699602,-1.96303081139268
0.7006,-1.91920261320945
0.701598,-1.86427577358754
0.702596,-1.80177295243225
0.703594,-1.73605983799493
0.704592,-1.67159324591211
0.70559,-1.61228616317154
0.706588,-1.5611448261214
0.707586,-1.52019169519319
0.708584,-1.4905915734298
0.709582,-1.47287278957415
0.71058,-1.46715842044544
0.711578,-1.47336000338781
0.712576,-1.49131681000398
0.713574,-1.52088133921684
0.714572,-1.56195840999478
0.71557,-1.61450543592924
0.716568,-1.67849875451602
0.717566,-1.75386757759418
0.718564,-1.84039466517275
0.719562,-1.93758236160531
0.72056,-2.04448548230474
0.721558,-2.159520256983
0.722556,-2.28027243115517
0.723554,-2.40334736862592
0.724552,-2.52432622253866
0.72555,-2.63790412665988
0.726548,-2.73827205128834
0.727546,-2.81974827137672
0.728544,-2.87757088657698
0.729542,-2.90866466610558
0.73054,-2.91215402071994
0.731538,-2.88945439309953
