"Freq [GHz]","dB(S(1,1)) []"
0.002,-0.000386274400552816
0.002998,-0.000636948097565414
0.003996,-0.000979737490051696
0.004994,-0.00140792100178806
0.005992,-0.00191478261271176
0.00699,-0.00249528463392655
0.007988,-0.00314839845421039
0.008986,-0.00388031118196108
0.009984,-0.00470881580568952
0.010982,-0.00542276335841536
0.01198,-0.00627865401190431
0.012978,-0.00730335788030575
0.013976,-0.0085239076989008
0.014974,-0.00997253227299901
0.015972,-0.0116881307844933
0.01697,-0.0137181831749263
0.017968,-0.0161212421766242
0.018966,-0.0189702129629257
0.019964,-0.0223567110643784
0.020962,-0.0263969087920784
0.02196,-0.0312394496331643
0.022958,-0.0370762480055908
0.023956,-0.0441573198229588
0.024954,-0.0528112223133179
0.025952,-0.0634731990998246
0.02695,-0.0767235937898741
0.027948,-0.0933390551954263
0.028946,-0.114357212497882
0.029944,-0.141148486667839
0.030942,-0.175468462050933
0.03194,-0.219413466452251
0.032938,-0.275091480395512
0.033936,-0.343633458319142
0.034934,-0.423041324862463
0.035932,-0.504947880365723
0.03693,-0.572803770399721
0.037928,-0.606923021698006
0.038926,-0.597084078702283
0.039924,-0.550375521804424
0.040922,-0.484409126657293
0.04192,-0.415309753260543
0.042918,-0.35231600311883
0.043916,-0.298772808130738
0.044914,-0.254785652130779
0.045912,-0.219165872789977
0.04691,-0.190428784926251
0.047908,-0.16719953677926
0.048906,-0.148333678344968
0.049904,-0.13292172468371
0.050902,-0.120255400640905
0.0519,-0.109787077340075
0.052898,-0.101093430898033
0.053896,-0.0938460568376628
0.054894,-0.0877887580033962
0.055892,-0.0827203493111706
0.05689,-0.0784817479313766
0.057888,-0.0749462973471333
0.058886,-0.0720125001625068
0.059884,-0.0695985370887146
0.060882,-0.0676381111283592
0.06188,-0.0660772784518961
0.062878,-0.0648720180035289
0.063876,-0.0639863580377302
0.064874,-0.0633909259386705
0.065872,-0.0630618227349817
0.06687,-0.0629797493465224
0.067868,-0.063129330444617
0.068866,-0.0634985957887985
0.069864,-0.0640785893977942
0.070862,-0.0648630849156075
0.07186,-0.0658483917683781
0.072858,-0.0670332417103251
0.073856,-0.0684187495338908
0.074854,-0.070008445391212
0.075852,-0.0718083796083466
0.07685,-0.073827304312864
0.077848,-0.0760769398758778
0.078846,-0.0785723383493046
0.079844,-0.081332361056918
0.080842,-0.0843802936466686
0.08184,-0.0877446297146539
0.082838,-0.091460064213806
0.083836,-0.095568751144868
0.084834,-0.100121897715225
0.085832,-0.105181790959435
0.08683,-0.110824385178235
0.087828,-0.117142622961079
0.088826,-0.124250724061313
0.089824,-0.132289762371293
0.090822,-0.141434972575408
0.09182,-0.151905400934125
0.092818,-0.163976763384097
0.093816,-0.177998735551531
0.094814,-0.194418429567617
0.095812,-0.213812598037767
0.09681,-0.236932279118509
0.097808,-0.264765363099773
0.098806,-0.298625232586163
0.099804,-0.340277671233634
0.100802,-0.386109530084802
0.1018,-0.441590872220322
0.102798,-0.510970974495571
0.103796,-0.598263765299208
0.104794,-0.708912715369953
0.105792,-0.85024040599025
0.10679,-1.03186743497003
0.107788,-1.26572823604771
0.108786,-1.56465129550944
0.109784,-1.93709224472793
0.110782,-2.37376394862416
0.11178,-2.82357740076231
0.112778,-3.17431491992996
0.113776,-3.28903026970776
0.114774,-3.11575916350277
0.115772,-2.74071501314037
0.11677,-2.30080742264576
0.117768,-1.88977247502467
0.118766,-1.54428173774583
0.119764,-1.26758383570184
0.120762,-1.05012910013239
0.12176,-0.879860966232108
0.122758,-0.746000443440184
0.123756,-0.639944580513179
0.124754,-0.555135106397027
0.125752,-0.486659873255712
0.12675,-0.430854464095733
0.127748,-0.384977214007595
0.128746,-0.34696340612856
0.129744,-0.315245173385383
0.130742,-0.288621150534581
0.13174,-0.266162356767179
0.132738,-0.247144037645966
0.133736,-0.230996016080086
0.134734,-0.217266257022144
0.135732,-0.20559391060863
0.13673,-0.195689200688746
0.137728,-0.187318296687728
0.138726,-0.180291844824736
0.139724,-0.174456211033199
0.140722,-0.169686752413937
0.14172,-0.165882621148694
0.142718,-0.162962738179197
0.143716,-0.160862669860103
0.144714,-0.159532210412868
0.145712,-0.158933524089886
0.14671,-0.159039738910979
0.147708,-0.159833912465085
0.148706,-0.161308312294117
0.149704,-0.163463970760741
0.150702,-0.166310488506911
0.1517,-0.16986607275462
0.152698,-0.174157807686057
0.153696,-0.179222164744386
0.154694,-0.185105771647078
0.155692,-0.191866470951004
0.15669,-0.199574712994119
0.157688,-0.208315344978514
0.158686,-0.218189879145169
0.159684,-0.229319350126896
0.160682,-0.241847906959634
0.16168,-0.255947332063407
0.162678,-0.271822742217799
0.163676,-0.289719811437673
0.164674,-0.309933971680133
0.165672,-0.332822207430235
0.16667,-0.358818283257667
0.167668,-0.38845255705701
0.168666,-0.422377976781693
0.169664,-0.461404496011704
0.170662,-0.50654506503303
0.17166,-0.559077696756421
0.172658,-0.620630077730245
0.173656,-0.693296103420181
0.174654,-0.779798019634406
0.175652,-0.883714194243504
0.17665,-1.00980176399752
0.177648,-1.16445635650281
0.178646,-1.35636787702819
0.179644,-1.59744871215614
0.180642,-1.90411398843925
0.18164,-2.29893273126771
0.182638,-2.81238737211891
0.183636,-3.48350207160569
0.184634,-4.35501745113293
0.185632,-5.44977304637358
0.18663,-6.69418013043663
0.187628,-7.75495781891262
0.188626,-8.01854399150103
0.189624,-7.25991575553476
0.190622,-6.00612743485197
0.19162,-4.77906169233368
0.192618,-3.76859721475412
0.193616,-2.98658388004567
0.194614,-2.39300072381932
0.195612,-1.94301001740116
0.19661,-1.59953114206105
0.197608,-1.33462225483121
0.198606,-1.12792608541676
0.199604,-0.964756344618168
0.200602,-0.834503682768265
0.2016,-0.729450872938524
0.202598,-0.643930084983364
0.203596,-0.573733247142089
0.204594,-0.515700868036808
0.205592,-0.467434323391794
0.20659,-0.427093111539649
0.207588,-0.393250699926952
0.208586,-0.364791014334297
0.209584,-0.340833351300548
0.210582,-0.320677354721976
0.21158,-0.303762297513235
0.212578,-0.289636666932548
0.213576,-0.277935248181493
0.214574,-0.268361721202655
0.215572,-0.260675353240163
0.21657,-0.254680766242405
0.217568,-0.250220037887438
0.218566,-0.247166594333864
0.219564,-0.245420496372982
0.220562,-0.244904825288326
0.22156,-0.245562951998023
0.222558,-0.247356531035134
0.223556,-0.250264105318094
0.224554,-0.254280242579104
0.225552,-0.259415152778264
0.22655,-0.265694760143922
0.227548,-0.273161225498342
0.228546,-0.281873935850086
0.229544,-0.291911000359608
0.230542,-0.303371316261448
0.23154,-0.316377296902023
0.232538,-0.331078388840335
0.233536,-0.34765554865815
0.234534,-0.366326906299838
0.235532,-0.387354915239245
0.23653,-0.411055387202955
0.237528,-0.437808939856195
0.238526,-0.468075562887938
0.239524,-0.502413249999315
0.240522,-0.541501978262542
0.24152,-0.586174781125732
0.242518,-0.637458313944506
0.243516,-0.696626235295125
0.244514,-0.765270048293066
0.245512,-0.845393950805317
0.24651,-0.939543014630642
0.247508,-1.0509780828776
0.248506,-1.18391680712373
0.249504,-1.34386928161594
0.250502,-1.53811043098004
0.2515,-1.77635240898182
0.252498,-2.0717135302265
0.253496,-2.44213465058067
0.254494,-2.91248820098425
0.255492,-3.51780339409792
0.25649,-4.30840893041785
0.257488,-5.35870133517831
0.258486,-6.78369530928684
0.259484,-8.7748471839516
0.260482,-11.6902262770913
0.26148,-16.2816528700527
0.262478,-22.0988914602133
0.263476,-17.5531546242214
0.264474,-12.618931381032
0.265472,-9.54790970657264
0.26647,-7.4850233370556
0.267468,-6.01973615104445
0.268466,-4.9407141668827
0.269464,-4.12537675026964
0.270462,-3.4966337032179
0.27146,-3.00339571138623
0.272458,-2.61058421259265
0.273456,-2.29348434208637
0.274454,-2.03432521948223
0.275452,-1.82010834571949
0.27645,-1.64118164286143
0.277448,-1.49027953971011
0.278446,-1.36186393803169
0.279444,-1.25166421042323
0.280442,-1.1563514325729
0.28144,-1.07330463946084
0.282438,-1.00044108522981
0.283436,-0.936091609364574
0.284434,-0.878908186826738
0.285432,-0.82779471518198
0.28643,-0.781854773974382
0.287428,-0.740351924835227
0.288426,-0.702679389351274
0.289424,-0.66833683030871
0.290422,-0.636912592289998
0.29142,-0.608070210966368
0.292418,-0.581538331713706
0.293416,-0.557103424999625
0.294414,-0.534604874481323
0.295412,-0.513932162359764
0.29641,-0.49502399847799
0.297408,-0.477869344527944
0.298406,-0.462510379489721
0.299404,-0.449047541853758
0.300402,-0.437646870914137
0.3014,-0.428549953474336
0.302398,-0.422086859844443
0.303396,-0.418692514177712
0.304394,-0.418926969484227
0.305392,-0.423500012217297
0.30639,-0.433300346522197
0.307388,-0.449429209974324
0.308386,-0.473237506851689
0.309384,-0.506364203230257
0.310382,-0.550771531869009
0.31138,-0.608769177577965
0.312378,-0.683014769227433
0.313376,-0.776471660574066
0.314374,-0.89229777654415
0.315372,-1.03363320389925
0.31637,-1.20325331156133
0.317368,-1.40306516904072
0.318366,-1.58209054360572
0.319364,-1.77237037880195
0.320362,-1.9969453710476
0.32136,-2.26297181181811
0.322358,-2.57918619440603
0.323356,-2.95616323820288
0.324354,-3.40650488404459
0.325352,-3.94481443527601
0.32635,-4.58714141655675
0.327348,-5.3492181211479
0.328346,-6.24201758434439
0.329344,-7.26155415969725
0.330342,-8.36742657761707
0.33134,-9.4456553007472
0.332338,-10.2761009356344
0.333336,-10.592907076566
0.334334,-10.2926745445703
0.335332,-9.54203777808699
0.33633,-8.6033214749628
0.337328,-7.66037838847612
0.338326,-6.79821022706243
0.339324,-6.04218917337105
0.340322,-5.39023725863743
0.34132,-4.82968374347095
0.342318,-4.34481885397651
0.343316,-3.92004702657792
0.344314,-3.54120971479714
0.345312,-3.1962845570312
0.34631,-2.8759665689045
0.347308,-2.57421631748014
0.348306,-2.28856481471035
0.349304,-2.01983944577441
0.350302,-1.77113338918568
0.3513,-1.54624208923463
0.352298,-1.34813727341943
0.353296,-1.17803095456671
0.354294,-1.03521901376991
0.355292,-0.917505092465713
0.35629,-0.821849069143117
0.357288,-0.744958164245417
0.358286,-0.683694342497107
0.359284,-0.635292204448969
0.360282,-0.597436077786458
0.36128,-0.568252574609711
0.362278,-0.546262153627951
0.363276,-0.530317105186201
0.364274,-0.519540655758142
0.365272,-0.513273717554552
0.36627,-0.511031244953235
0.367268,-0.512467928909008
0.368266,-0.517352061539402
0.369264,-0.525546188663314
0.370262,-0.536993265630572
0.37126,-0.551707244860746
0.372258,-0.569767257296312
0.373256,-0.591314763905853
0.374254,-0.616553233678488
0.375252,-0.645750049281937
0.37625,-0.67924045271307
0.377248,-0.717433422656294
0.378246,-0.76081942207612
0.379244,-0.809979963522352
0.380242,-0.865598898909131
0.38124,-0.928475229027642
0.382238,-0.999537011405385
0.383236,-1.07985557022972
0.384234,-1.17065859985404
0.385232,-1.27333979039941
0.38623,-1.38946113436658
0.387228,-1.52074189705585
0.388226,-1.66902512325062
0.389224,-1.83620831267744
0.390222,-2.02411951679581
0.39122,-2.23431409391989
0.392218,-2.46776236176722
0.393216,-2.7243982817597
0.394214,-3.00251168623062
0.395212,-3.2980039470756
0.39621,-3.60360537312453
0.397208,-3.90828161027219
0.398206,-4.19721298180098
0.399204,-4.45281912130154
0.400202,-4.65714013652125
0.4012,-4.79532245814332
0.402198,-4.85914538969256
0.403196,-4.84907275361102
0.404194,-4.77383215089563
0.405192,-4.6478055989332
0.40619,-4.48754845175977
0.407188,-4.30880905032183
0.408186,-4.12474102097707
0.409184,-3.94528031598776
0.410182,-3.77729954908739
0.41118,-3.62512628258566
0.412178,-3.49113465347884
0.413176,-3.37625300259462
0.414174,-3.28032139356565
0.415172,-3.20228047683908
0.41617,-3.14019286803937
0.417168,-3.09110834428951
0.418166,-3.05080328151254
0.419164,-3.01347324543648
0.420162,-2.97155316246331
0.42116,-2.91597267966242
0.422158,-2.83723665514804
0.423156,-2.7275476334137
0.424154,-2.5835646637601
0.425152,-2.40853184604618
0.42615,-2.21226052627344
0.427148,-2.00852873641895
0.428146,-1.81118623458555
0.429144,-1.63096938376203
0.430142,-1.47417997228428
0.43114,-1.34305166492434
0.432138,-1.23695190111263
0.433136,-1.15365836318191
0.434134,-1.09033338232252
0.435132,-1.04412864558203
0.43613,-1.01249589441822
0.437128,-0.993308091292562
0.438126,-0.984875841545813
0.439124,-0.98591468422242
0.440122,-0.995495149376871
0.44112,-1.01299188311631
0.442118,-1.03803906125396
0.443116,-1.07049448692289
0.444114,-1.1104124182601
0.445112,-1.15802414232164
0.44611,-1.2137249163947
0.447108,-1.27806575267909
0.448106,-1.35174841171444
0.449104,-1.43562176614187
0.450102,-1.53067731022875
0.4511,-1.63804094453176
0.452098,-1.75895718118164
0.453096,-1.89476051632637
0.454094,-2.0468268441948
0.455092,-2.2164954498003
0.45609,-2.40494948323084
0.457088,-2.6130403923303
0.458086,-2.84104070624347
0.459084,-3.08831201938736
0.460082,-3.35288480458505
0.46108,-3.63096940431748
0.462078,-3.91645970557686
0.463076,-4.20055582077184
0.464074,-4.47170968747869
0.465072,-4.71614987314776
0.46607,-4.91919517287618
0.467068,-5.06734145415313
0.468066,-5.15071109505031
0.469064,-5.16508491518753
0.470062,-5.11271283076669
0.47106,-5.00156845093883
0.472058,-4.84340782687471
0.473056,-4.6514318176511
0.474054,-4.43830030610654
0.475052,-4.21487571810677
0.47605,-3.98969779055571
0.477048,-3.76898793125052
0.478046,-3.55694631688831
0.479044,-3.35615807970599
0.480042,-3.16799737770426
0.48104,-2.99297638106761
0.482038,-2.83102287200141
0.483036,-2.68168925430098
0.484034,-2.5443036402857
0.485032,-2.41807545761903
0.48603,-2.3021669834966
0.487028,-2.195740189926
0.488026,-2.09798615947369
0.489024,-2.00814247211914
0.490022,-1.92550247414394
0.49102,-1.84941920532089
0.492018,-1.77930592435222
0.493016,-1.71463457005328
0.494014,-1.65493306925758
0.495012,-1.59978210482891
0.49601,-1.54881175244122
0.497008,-1.50169825620546
0.498006,-1.45816112144236
0.499004,-1.41796064417213
0.500002,-1.38089596158774
0.501,-1.34680368925803
0.501998,-1.31555720456819
0.502996,-1.28706663896255
0.503994,-1.26127965196164
0.504992,-1.23818307642131
0.50599,-1.21780554617273
0.506988,-1.20022124313874
0.507986,-1.18555492995793
0.508984,-1.17398846373305
0.509982,-1.16576901243538
0.51098,-1.16121920992752
0.511978,-1.16074947480811
0.512976,-1.16487265901349
0.513974,-1.17422104575099
0.514972,-1.18956542081086
0.51597,-1.21183539981578
0.516968,-1.24213926139721
0.517966,-1.28178000669469
0.518964,-1.33226197103035
0.519962,-1.39527875828887
0.52096,-1.47266834651102
0.521958,-1.56631509453707
0.522956,-1.677972182395
0.523954,-1.80897475834693
0.524952,-1.95981984382946
0.52595,-2.12961364743264
0.526948,-2.31544166993706
0.527946,-2.51180618199939
0.528944,-2.71037952222033
0.529942,-2.90037755762402
0.53094,-3.06976685064244
0.531938,-3.20721624716892
0.532936,-3.3042763922541
0.533934,-3.35699861960686
0.534932,-3.36636449465817
0.53593,-3.33745083825266
0.536928,-3.27781610102556
0.537926,-3.19579339916189
0.538924,-3.09918828554849
0.539922,-2.99454836306596
0.54092,-2.8869244345192
0.541918,-2.77994734091082
0.542916,-2.67605627336853
0.543914,-2.57676692806401
0.544912,-2.48291959561355
0.54591,-2.39488325561057
0.546908,-2.3127119645983
0.547906,-2.23625904815544
0.548904,-2.16525753454713
0.549902,-2.09937514342907
0.5509,-2.18781742653242
0.551898,-1.76482930842331
0.552896,-0.545181562293291
0.553894,-1.10605344968859
0.554892,-1.31642675585514
0.55589,-1.41002262755708
0.556888,-1.45918511329874
0.557886,-1.48765017226921
0.558884,-1.5051891823124
0.559882,-1.51653622044593
0.56088,-1.52427822662745
0.561878,-1.52997109069879
0.562876,-1.53463119795331
0.563874,-1.53897508207422
0.564872,-1.54354632033656
0.56587,-1.54878767542793
0.566868,-1.55508490213489
0.567866,-1.56279516309635
0.568864,-1.57226680333942
0.569862,-1.58385420199227
0.57086,-1.5979298547407
0.571858,-1.61489499264707
0.572856,-1.63518955937002
0.573854,-1.65930207311971
0.574852,-1.68777969640272
0.57585,-1.72123866770405
0.576848,-1.76037507233585
0.577846,-1.80597570583108
0.578844,-1.85892846893482
0.579842,-1.92023127393432
0.58084,-1.99099776700322
0.581838,-2.07245718998278
0.582836,-2.1659443089563
0.583834,-2.27287341229392
0.584832,-2.39468784622018
0.58583,-2.53277344797491
0.586828,-2.68832088028712
0.587826,-2.86211918529572
0.588824,-3.05426285949175
0.589822,-3.26376111258872
0.59082,-3.48805661824002
0.591818,-3.72249952654968
0.592816,-3.95988634866556
0.593814,-4.19025669072919
0.594812,-4.40121060042004
0.59581,-4.57899317285513
0.596808,-4.71040160604419
0.597806,-4.78518494572732
0.598804,-4.79819620764721
0.599802,-4.75044932838986
0.6008,-4.64863634646036
0.601798,-4.5033640952454
0.602796,-4.32687959159701
0.603794,-4.13106777133875
0.604792,-3.92615225337822
0.60579,-3.72013516736573
0.606788,-3.51878337388558
0.607786,-3.32591928787291
0.608784,-3.14382505155538
0.609782,-2.97364381114461
0.61078,-2.81572328435932
0.611778,-2.6698855226302
0.612776,-2.53562669849395
0.613774,-2.41225868120098
0.614772,-2.29900566850676
0.61577,-2.19506777204747
0.616768,-2.09966114852802
0.617766,-2.01204195015876
0.618764,-1.93151939425388
0.619762,-1.85746170671202
0.62076,-1.7892975426671
0.621758,-1.72651465692704
0.622756,-1.66865701110638
0.623754,-1.6153210985119
0.624752,-1.5661519906945
0.62575,-1.52083942289258
0.626748,-1.47911411166199
0.627746,-1.44074441717203
0.628744,-1.4055334112269
0.629742,-1.37331638057249
0.63074,-1.34395877699072
0.631738,-1.31735461667259
0.632736,-1.29342532844447
0.633734,-1.27211905162878
0.634732,-1.25341038834581
0.63573,-1.23730062103685
0.636728,-1.22381841330584
0.637726,-1.21302102036237
0.638724,-1.20499604393633
0.639722,-1.19986377492884
0.64072,-1.19778017438175
0.641718,-1.19894054818722
0.642716,-1.20358397107399
0.643714,-1.21199850722998
0.644712,-1.22452725284679
0.64571,-1.24157518122756
0.646708,-1.2636166906438
0.647706,-1.29120361896164
0.648704,-1.32497326781444
0.649702,-1.36565563040872
0.6507,-1.41407848167541
0.651698,-1.47116818830163
0.652696,-1.53794293111692
0.653694,-1.61549339766564
0.654692,-1.70494381995751
0.65569,-1.80738353072421
0.656688,-1.92375629164757
0.657686,-2.05469237207129
0.658684,-2.20026860030285
0.659682,-2.35968779007423
0.66068,-2.53088628668034
0.661678,-2.71011294715724
0.662676,-2.89157762845072
0.663674,-3.06733333243581
0.664672,-3.2276008800266
0.66567,-3.36170822502951
0.666668,-3.45963883706864
0.667666,-3.51387890762659
0.668664,-3.52097503100113
0.669662,-3.48219714830551
0.67066,-3.40304577069176
0.671658,-3.29185317990948
0.672656,-3.15806066450276
0.673654,-3.01073278138733
0.674652,-2.85760621205508
0.67565,-2.70468971098299
0.676648,-2.55627011755221
0.677646,-2.41514473071587
0.678644,-2.28293712037338
0.679642,-2.16040873594262
0.68064,-2.04772469279011
0.681638,-1.94466156685888
0.682636,-1.85076037823621
0.683634,-1.76543410590905
0.684632,-1.68804023429721
0.68563,-1.61792772672914
0.686628,-1.554465975852
0.687626,-1.49706142828174
0.688624,-1.44516600798215
0.689622,-1.3982802362402
0.69062,-1.35595303710858
0.691618,-1.3177795663811
0.692616,-1.28339794830581
0.693614,-1.25248549536077
0.694612,-1.22475478258569
0.69561,-1.199949820595
0.696608,-1.17784250154708
0.697606,-1.15822946891975
0.698604,-1.14092958010867
0.699602,-1.12578219038225
0.7006,-1.11264658950135
0.701598,-1.10140306787317
0.702596,-1.09195626598422
0.703594,-1.0842416314769
0.704592,-1.07823588639749
0.70559,-1.07397223326413
0.706588,-1.0715603634269
0.707586,-1.07120991445192
0.708584,-1.07325376400887
0.709582,-1.07816487392913
0.71058,-1.08655861136912
0.711578,-1.09917363913693
0.712576,-1.11683025279951
0.713574,-1.14037466734258
0.714572,-1.17062679766881
0.71557,-1.20835147836361
0.716568,-1.25426597903817
0.717566,-1.30908364085443
0.718564,-1.37358198382951
0.719562,-1.44867916651731
0.72056,-1.53550512512337
0.721558,-1.6354589874481
0.722556,-1.7502480667704
0.723554,-1.88190337903198
0.724552,-2.03276136296997
0.72555,-2.20539098554978
0.726548,-2.40242904735253
0.727546,-2.62626360599525
0.728544,-2.87847735021565
0.729542,-3.1589380107767
0.73054,-3.46442795648315
0.731538,-3.78680148156686
0.732536,-4.11095332517218
0.733534,-4.41347876276282
0.734532,-4.66367529639144
